x,y,theta
-0.0763464,-1.99377,6.19714
-0.0763888,-1.99508,6.19665
-0.0764875,-1.99777,6.19565
-0.0766195,-2.0005,6.19465
-0.0766879,-2.00191,6.19422
-0.0767633,-2.00332,6.19378
-0.0768382,-2.00476,6.19338
-0.0769185,-2.0062,6.19298
-0.0770008,-2.00769,6.19261
-0.0770888,-2.00913,6.19227
-0.0771862,-2.0106,6.19191
-0.0772926,-2.01208,6.19155
-0.0774095,-2.01356,6.19118
-0.0776873,-2.0165,6.19032
-0.0778291,-2.01799,6.18996
-0.0779828,-2.01948,6.18958
-0.078328,-2.02246,6.18871
-0.0785119,-2.024,6.18833
-0.0786772,-2.02553,6.18807
-0.078858,-2.02709,6.18779
-0.0790494,-2.02864,6.18751
-0.0795282,-2.03164,6.18661
-0.0800372,-2.03468,6.18573
-0.0805825,-2.03774,6.18484
-0.0808725,-2.03928,6.18447
-0.0811749,-2.04083,6.1841
-0.081789,-2.04394,6.18322
-0.0821224,-2.04548,6.18284
-0.0824651,-2.04703,6.18245
-0.0831524,-2.05018,6.18156
-0.0838708,-2.05337,6.18069
-0.0842531,-2.05495,6.18031
-0.0846407,-2.05654,6.17995
-0.0858508,-2.06136,6.17848
-0.086308,-2.06292,6.17802
-0.0867767,-2.0645,6.17755
-0.0872549,-2.06607,6.17708
-0.088185,-2.06933,6.1761
-0.0891496,-2.07261,6.17512
-0.0896818,-2.07425,6.17463
-0.0902015,-2.07583,6.17416
-0.0907522,-2.07747,6.17366
-0.0912925,-2.07906,6.17317
-0.09237,-2.0824,6.17217
-0.0929497,-2.08401,6.17166
-0.0935449,-2.08561,6.17113
-0.0941612,-2.08725,6.17058
-0.0947688,-2.08882,6.17005
-0.0959642,-2.09222,6.16901
-0.0966106,-2.09384,6.16845
-0.0972764,-2.09551,6.16789
-0.0979744,-2.09704,6.16722
-0.098697,-2.09863,6.16653
-0.100068,-2.10209,6.16532
-0.101451,-2.10551,6.16411
-0.102883,-2.10899,6.16289
-0.104351,-2.1125,6.16166
-0.105858,-2.11605,6.16043
-0.106674,-2.11771,6.1597
-0.107501,-2.11937,6.15895
-0.109089,-2.12297,6.1577
-0.10995,-2.12463,6.15693
-0.110788,-2.12636,6.15632
-0.111635,-2.12809,6.1557
-0.113292,-2.13182,6.15457
-0.11417,-2.13357,6.15394
-0.115894,-2.13733,6.15279
-0.117659,-2.14112,6.15163
-0.118576,-2.14292,6.15103
-0.119504,-2.14473,6.15043
-0.121339,-2.14859,6.14931
-0.122345,-2.15034,6.14857
-0.124297,-2.15423,6.14737
-0.125322,-2.15602,6.14666
-0.126337,-2.15778,6.14597
-0.127381,-2.15958,6.14526
-0.128441,-2.16139,6.14454
-0.129511,-2.16319,6.14381
-0.130591,-2.165,6.14307
-0.13168,-2.16681,6.14232
-0.133809,-2.17076,6.14105
-0.135986,-2.17474,6.13977
-0.13713,-2.17657,6.13898
-0.138285,-2.17839,6.13817
-0.139454,-2.18023,6.13736
-0.140634,-2.18207,6.13653
-0.142919,-2.18619,6.13534
-0.144104,-2.18811,6.13464
-0.145301,-2.19003,6.13393
-0.147678,-2.1942,6.1327
-0.148879,-2.19619,6.13211
-0.150093,-2.19819,6.13151
-0.151314,-2.2002,6.13092
-0.152547,-2.20221,6.13032
-0.155022,-2.20653,6.12927
-0.156317,-2.2085,6.1286
-0.157626,-2.21048,6.12792
-0.160238,-2.21476,6.12671
-0.1629,-2.21904,6.1255
-0.165612,-2.22334,6.12426
-0.167003,-2.22533,6.12352
-0.168438,-2.22727,6.12268
-0.171278,-2.23166,6.12145
-0.172694,-2.23362,6.12073
-0.174152,-2.23563,6.11999
-0.177059,-2.24001,6.11873
-0.180041,-2.24447,6.11745
-0.181516,-2.24645,6.11669
-0.18303,-2.24848,6.11591
-0.184556,-2.25052,6.11512
-0.186093,-2.25257,6.11432
-0.189188,-2.25707,6.11301
-0.192306,-2.26163,6.11182
-0.195477,-2.26621,6.11062
-0.197137,-2.26844,6.10989
-0.19868,-2.27048,6.1092
-0.200303,-2.27263,6.10847
-0.201972,-2.27482,6.10773
-0.205238,-2.27946,6.10663
-0.206886,-2.28166,6.10601
-0.208544,-2.28386,6.1054
-0.211946,-2.28856,6.10427
-0.213638,-2.29078,6.10364
-0.21538,-2.29305,6.10299
-0.218853,-2.29773,6.10185
-0.2206,-2.29995,6.10119
-0.222357,-2.30218,6.10051
-0.226008,-2.30697,6.09931
-0.227744,-2.30921,6.09877
-0.229533,-2.31149,6.0982
-0.231315,-2.31383,6.09777
-0.233111,-2.31616,6.09733
-0.236824,-2.32106,6.0965
-0.240628,-2.32589,6.09554
-0.242492,-2.32823,6.09517
-0.244369,-2.33056,6.09479
-0.246257,-2.33288,6.09439
-0.248158,-2.3352,6.09399
-0.252102,-2.34004,6.09308
-0.254042,-2.34235,6.09266
-0.255992,-2.34466,6.09224
-0.26004,-2.34949,6.09131
-0.262029,-2.3518,6.09087
-0.264039,-2.3541,6.0904
-0.266064,-2.35639,6.08991
-0.268102,-2.35867,6.08942
-0.270151,-2.36094,6.08891
-0.274393,-2.36572,6.08789
-0.276475,-2.368,6.08739
-0.278617,-2.37033,6.08688
-0.282916,-2.37507,6.08587
-0.285051,-2.37734,6.08535
-0.28946,-2.38216,6.08442
-0.293923,-2.38698,6.08347
-0.298439,-2.39178,6.08251
-0.300653,-2.39408,6.08204
-0.30288,-2.39637,6.08157
-0.30512,-2.39867,6.08109
-0.307417,-2.401,6.08058
-0.312044,-2.40572,6.07959
-0.316771,-2.41048,6.07859
-0.319083,-2.41275,6.07808
-0.321411,-2.41502,6.07756
-0.323751,-2.41727,6.07703
-0.326102,-2.41954,6.0765
-0.328467,-2.4218,6.07597
-0.330822,-2.42413,6.07558
-0.333191,-2.42645,6.07519
-0.335565,-2.42879,6.07484
-0.337955,-2.43112,6.07448
-0.340359,-2.43345,6.07412
-0.342778,-2.43578,6.07375
-0.345207,-2.4381,6.07339
-0.347702,-2.44046,6.07301
-0.350101,-2.44272,6.07267
-0.355221,-2.44745,6.07181
-0.357714,-2.44974,6.07144
-0.36022,-2.45202,6.07106
-0.36544,-2.45673,6.07023
-0.367978,-2.45902,6.0699
-0.370531,-2.46131,6.06955
-0.373098,-2.4636,6.0692
-0.375676,-2.46587,6.06884
-0.37827,-2.46814,6.06848
-0.380873,-2.4704,6.06812
-0.386301,-2.47503,6.06726
-0.388941,-2.4773,6.06691
-0.394445,-2.4819,6.06606
-0.397123,-2.48415,6.06571
-0.399816,-2.4864,6.06535
-0.402577,-2.48868,6.06497
-0.408155,-2.49317,6.06409
-0.410887,-2.49542,6.0638
-0.413631,-2.49766,6.0635
-0.416387,-2.49989,6.0632
-0.419154,-2.50211,6.0629
-0.424919,-2.50663,6.06217
-0.427715,-2.50887,6.06194
-0.43051,-2.51115,6.06183
-0.43636,-2.51566,6.06122
-0.439192,-2.51791,6.06111
-0.442037,-2.52015,6.061
-0.444954,-2.52243,6.0609
-0.447757,-2.52461,6.06081
-0.450638,-2.52683,6.0607
-0.45353,-2.52904,6.06059
-0.459571,-2.53339,6.06
-0.462495,-2.53557,6.0599
-0.46543,-2.53774,6.0598
-0.471563,-2.542,6.0592
-0.477746,-2.54622,6.0586
-0.480749,-2.54833,6.05849
-0.483766,-2.55043,6.05838
-0.486793,-2.55251,6.05826
-0.493097,-2.55662,6.05765
-0.496159,-2.55867,6.05754
-0.499227,-2.56074,6.05748
-0.502307,-2.56278,6.05741
-0.505404,-2.56482,6.05734
-0.50853,-2.5668,6.05718
-0.511735,-2.56879,6.05701
-0.514818,-2.57068,6.05686
-0.521344,-2.57452,6.05619
-0.527918,-2.57832,6.05551
-0.531126,-2.58021,6.05535
-0.534357,-2.58206,6.05513
-0.541021,-2.58577,6.05447
-0.547727,-2.58944,6.05381
-0.551008,-2.59126,6.05364
-0.554299,-2.59308,6.05347
-0.557596,-2.59488,6.0533
-0.560905,-2.59666,6.05313
-0.56422,-2.59843,6.05295
-0.567548,-2.60018,6.05275
-0.570884,-2.60192,6.05257
-0.57423,-2.60364,6.05238
-0.581134,-2.60707,6.0517
-0.584511,-2.60876,6.0515
-0.587887,-2.6105,6.05142
-0.591295,-2.61215,6.05124
-0.594708,-2.61381,6.0511
-0.601736,-2.61708,6.05046
-0.605166,-2.61875,6.05044
-0.608682,-2.62042,6.05039
-0.612065,-2.62201,6.05035
-0.615599,-2.62365,6.05029
-0.618997,-2.6252,6.05025
-0.62255,-2.6268,6.05019
-0.633313,-2.63133,6.04915
-0.636829,-2.63284,6.04909
-0.644061,-2.6358,6.04857
-0.647618,-2.63723,6.04844
-0.651182,-2.63864,6.04832
-0.658569,-2.64146,6.04768
-0.66208,-2.64282,6.04759
-0.665673,-2.64419,6.04749
-0.673051,-2.64689,6.04689
-0.67668,-2.6482,6.04674
-0.680395,-2.64953,6.04657
-0.687786,-2.65202,6.04583
-0.695286,-2.6545,6.04508
-0.698981,-2.65568,6.04482
-0.702682,-2.65686,6.04456
-0.706391,-2.65802,6.0443
-0.710186,-2.65919,6.04402
-0.713833,-2.66029,6.04376
-0.717564,-2.66141,6.04349
-0.721316,-2.66248,6.04315
-0.725154,-2.66356,6.0428
-0.728841,-2.66459,6.04247
-0.732612,-2.66562,6.04213
-0.740295,-2.66776,6.04128
-0.744086,-2.66876,6.04094
-0.747962,-2.66978,6.04059
-0.755621,-2.67181,6.03975
-0.759438,-2.67277,6.0394
-0.763262,-2.67372,6.03905
-0.767105,-2.6746,6.0386
-0.770948,-2.67554,6.03829
-0.774878,-2.67648,6.03796
-0.778892,-2.67743,6.03764
-0.782514,-2.67828,6.03736
-0.78638,-2.67917,6.03706
-0.794251,-2.68099,6.03625
-0.798139,-2.68186,6.03594
-0.802036,-2.6827,6.0356
-0.805936,-2.68354,6.0353
-0.809843,-2.68436,6.03499
-0.817788,-2.68603,6.03417
-0.821714,-2.6868,6.03381
-0.825645,-2.68755,6.03348
-0.833643,-2.68911,6.03263
-0.837597,-2.68984,6.03229
-0.841557,-2.69055,6.03194
-0.845516,-2.69123,6.03158
-0.849481,-2.69191,6.03123
-0.853448,-2.69257,6.03088
-0.857419,-2.6932,6.03052
-0.861394,-2.69384,6.03018
-0.865374,-2.69446,6.02983
-0.873466,-2.69579,6.02908
-0.877541,-2.69644,6.02882
-0.881454,-2.69704,6.02857
-0.885538,-2.69765,6.0283
-0.893596,-2.69883,6.02755
-0.897611,-2.69939,6.0273
-0.901635,-2.69994,6.02704
-0.905662,-2.70047,6.02677
-0.909693,-2.70099,6.02651
-0.913729,-2.70149,6.02624
-0.922017,-2.70251,6.02545
-0.930158,-2.70344,6.02468
-0.934304,-2.7039,6.02439
-0.938288,-2.70432,6.02411
-0.942361,-2.70474,6.02382
-0.94645,-2.70507,6.02341
-0.950545,-2.7054,6.02299
-0.954644,-2.70572,6.02257
-0.962953,-2.7064,6.02165
-0.967066,-2.70667,6.02121
-0.971182,-2.70694,6.02081
-0.979605,-2.70754,6.01989
-0.983648,-2.70777,6.01948
-0.987773,-2.70799,6.01906
-0.996139,-2.70847,6.01814
-1.00029,-2.70858,6.01761
-1.00444,-2.70869,6.01709
-1.01284,-2.70899,6.01599
-1.01701,-2.70903,6.01539
-1.02118,-2.70899,6.01469
-1.02962,-2.70917,6.01353
-1.0338,-2.70914,6.01286
-1.03799,-2.70909,6.01219
-1.04219,-2.70904,6.01151
-1.04638,-2.70899,6.01084
-1.05486,-2.70908,6.00965
-1.05906,-2.709,6.00897
-1.06326,-2.70891,6.00827
-1.06748,-2.70882,6.00757
-1.07169,-2.7087,6.00684
-1.08029,-2.70868,6.00558
-1.08873,-2.70861,6.00434
-1.09727,-2.70853,6.00311
-1.10582,-2.7084,6.00187
-1.11438,-2.70824,6.00062
-1.11862,-2.70803,5.99987
-1.12286,-2.70786,5.99923
-1.13144,-2.70768,5.99809
-1.13568,-2.70749,5.99747
-1.14002,-2.70729,5.99681
-1.14418,-2.70713,5.99632
-1.14843,-2.70694,5.99577
-1.15705,-2.70666,5.99472
-1.16132,-2.70644,5.99417
-1.16567,-2.70621,5.99362
-1.16986,-2.70598,5.99309
-1.17422,-2.70573,5.99254
-1.17841,-2.70549,5.992
-1.18269,-2.70529,5.99161
-1.18707,-2.70502,5.9911
-1.19135,-2.70473,5.99061
-1.19993,-2.70425,5.98961
-1.20423,-2.70393,5.98911
-1.20861,-2.7036,5.9886
-1.2172,-2.70305,5.98765
-1.2215,-2.70272,5.98718
-1.22581,-2.70241,5.98681
-1.23012,-2.70208,5.98643
-1.23442,-2.70175,5.98607
-1.2432,-2.70108,5.9852
-1.24751,-2.70072,5.98487
-1.25174,-2.70036,5.98456
-1.26043,-2.69959,5.98373
-1.26474,-2.69917,5.98339
-1.26906,-2.69875,5.98308
-1.27346,-2.69824,5.98265
-1.27769,-2.69773,5.98225
-1.282,-2.6972,5.98182
-1.28632,-2.69666,5.98139
-1.29511,-2.69561,5.98044
-1.29934,-2.69505,5.98004
-1.30366,-2.69448,5.97964
-1.30806,-2.69391,5.9793
-1.31229,-2.69333,5.97896
-1.321,-2.69217,5.9781
-1.32969,-2.69094,5.97725
-1.33401,-2.6903,5.97691
-1.34269,-2.68899,5.97606
-1.34699,-2.68828,5.97572
-1.35567,-2.68687,5.97487
-1.36434,-2.6854,5.97401
-1.36864,-2.68462,5.97366
-1.37293,-2.68382,5.9733
-1.38159,-2.68224,5.97243
-1.38588,-2.6814,5.97207
-1.39017,-2.68052,5.97166
-1.39445,-2.67963,5.97125
-1.39872,-2.67872,5.97085
-1.40735,-2.67695,5.96993
-1.41598,-2.67513,5.96901
-1.42024,-2.67415,5.96859
-1.42451,-2.67312,5.9681
-1.42877,-2.67207,5.9676
-1.43303,-2.671,5.96707
-1.43728,-2.66992,5.96654
-1.44153,-2.66882,5.966
-1.45021,-2.66673,5.96494
-1.45437,-2.66562,5.96441
-1.45861,-2.66449,5.96387
-1.46294,-2.66326,5.96321
-1.46709,-2.66209,5.96261
-1.47566,-2.65983,5.96147
-1.47989,-2.65859,5.96082
-1.48412,-2.65734,5.96016
-1.49267,-2.65501,5.95901
-1.49689,-2.65373,5.95835
-1.5011,-2.65243,5.95768
-1.50532,-2.65113,5.95701
-1.51384,-2.64872,5.95583
-1.51813,-2.64737,5.95514
-1.52655,-2.64492,5.95396
-1.53505,-2.6424,5.95276
-1.53925,-2.64105,5.95209
-1.54344,-2.63969,5.95141
-1.54764,-2.63832,5.95074
-1.55183,-2.63695,5.95007
-1.55601,-2.63557,5.94939
-1.56019,-2.63417,5.9487
-1.56864,-2.63154,5.9475
-1.5728,-2.63011,5.9468
-1.58123,-2.62741,5.94559
-1.58538,-2.62595,5.94488
-1.59379,-2.6232,5.94366
-1.59793,-2.62171,5.94293
-1.60215,-2.6202,5.9422
-1.60628,-2.61867,5.94143
-1.61033,-2.61721,5.94077
-1.61446,-2.61571,5.9401
-1.61859,-2.6142,5.93941
-1.62694,-2.61125,5.93809
-1.63106,-2.6097,5.9374
-1.63518,-2.60814,5.93669
-1.63947,-2.60658,5.93612
-1.64343,-2.60513,5.93558
-1.64754,-2.60361,5.93502
-1.65166,-2.60208,5.93447
-1.65577,-2.60054,5.93391
-1.65995,-2.59896,5.93333
-1.66397,-2.59743,5.93278
-1.66806,-2.59586,5.93221
-1.67216,-2.59428,5.93164
-1.67624,-2.59265,5.93099
-1.68451,-2.58953,5.92983
-1.68858,-2.58782,5.92909
-1.69683,-2.5846,5.92783
-1.70088,-2.58287,5.92707
-1.70494,-2.58114,5.9263
-1.70899,-2.57939,5.92552
-1.71314,-2.57768,5.92487
-1.72127,-2.57447,5.92373
-1.72532,-2.57276,5.9231
-1.73351,-2.56946,5.92196
-1.73755,-2.56773,5.92131
-1.74167,-2.56595,5.92063
-1.74974,-2.56261,5.91947
-1.75788,-2.55921,5.91828
-1.76198,-2.55739,5.9176
-1.7659,-2.55563,5.91692
-1.77401,-2.55216,5.91573
-1.778,-2.55034,5.91504
-1.78199,-2.54852,5.91433
-1.79005,-2.54495,5.91307
-1.79401,-2.54307,5.9123
-1.80205,-2.53946,5.91102
-1.80609,-2.53753,5.91023
-1.8141,-2.53388,5.90894
-1.81796,-2.532,5.90815
-1.82189,-2.53007,5.90733
-1.82583,-2.52814,5.90651
-1.82984,-2.52617,5.90567
-1.83368,-2.52425,5.90484
-1.83768,-2.52226,5.90399
-1.84556,-2.5186,5.90274
-1.84947,-2.51666,5.90198
-1.85339,-2.51473,5.90124
-1.8613,-2.51098,5.89999
-1.8652,-2.50902,5.89924
-1.86909,-2.50706,5.89849
-1.87298,-2.5051,5.89773
-1.87686,-2.50313,5.89697
-1.88074,-2.50115,5.89621
-1.88461,-2.49916,5.89543
-1.89645,-2.49349,5.89376
-1.90032,-2.49151,5.89308
-1.90419,-2.48959,5.89254
-1.90805,-2.48758,5.89189
-1.91199,-2.48557,5.89132
-1.91577,-2.48363,5.89077
-1.91963,-2.48167,5.89029
-1.92356,-2.47967,5.8898
-1.93126,-2.47578,5.88883
-1.9351,-2.47379,5.88835
-1.93895,-2.47179,5.88787
-1.94278,-2.46979,5.88738
-1.94663,-2.46783,5.88704
-1.95436,-2.46384,5.88621
-1.95818,-2.46184,5.88587
-1.96199,-2.4598,5.88548
-1.96579,-2.45775,5.88509
-1.96966,-2.45564,5.88469
-1.97339,-2.45367,5.88446
-1.97727,-2.45159,5.88421
-1.98099,-2.4496,5.884
-1.98478,-2.44754,5.88378
-1.98856,-2.44547,5.88355
-1.99241,-2.44335,5.88331
-1.9999,-2.43912,5.8826
-2.00366,-2.43701,5.88237
-2.00748,-2.43483,5.88214
-2.01115,-2.43273,5.88192
-2.01488,-2.43057,5.8817
-2.01861,-2.4284,5.88148
-2.02232,-2.42621,5.88127
-2.02602,-2.42395,5.88096
-2.02972,-2.42172,5.88078
-2.0334,-2.41944,5.88053
-2.03707,-2.41714,5.88029
-2.0444,-2.41241,5.87942
-2.04803,-2.41001,5.87906
-2.05164,-2.4076,5.8787
-2.05526,-2.4052,5.8784
-2.05892,-2.40269,5.87801
-2.06607,-2.39789,5.87721
-2.06965,-2.39544,5.8769
-2.07329,-2.39292,5.87658
-2.08397,-2.38558,5.87528
-2.08751,-2.38308,5.87498
-2.09103,-2.38057,5.87468
-2.09455,-2.37806,5.87437
-2.09807,-2.37553,5.87406
-2.10157,-2.37299,5.87377
-2.10506,-2.37044,5.87347
-2.10861,-2.36782,5.87315
-2.11201,-2.3653,5.87286
-2.11547,-2.36271,5.87255
-2.11892,-2.36012,5.87225
-2.12237,-2.35752,5.87194
-2.1327,-2.34965,5.87057
-2.1361,-2.34698,5.87022
-2.13949,-2.34431,5.86987
-2.14287,-2.34163,5.86953
-2.14624,-2.33894,5.86919
-2.14959,-2.33624,5.86885
-2.15638,-2.33077,5.86798
-2.16298,-2.32536,5.86714
-2.16961,-2.31987,5.86628
-2.17289,-2.31709,5.86592
-2.17616,-2.3143,5.86556
-2.18271,-2.30873,5.86469
-2.18595,-2.30591,5.86432
-2.18918,-2.30309,5.86395
-2.1924,-2.30025,5.86357
-2.19561,-2.29741,5.8632
-2.19881,-2.29455,5.86281
-2.202,-2.29169,5.86245
-2.20518,-2.28883,5.8621
-2.20841,-2.2859,5.86173
-2.21467,-2.28015,5.86079
-2.21785,-2.27715,5.86033
-2.22096,-2.27419,5.85987
-2.22401,-2.27132,5.85951
-2.2271,-2.26837,5.85912
-2.2333,-2.2625,5.85823
-2.23635,-2.25952,5.85784
-2.2394,-2.25653,5.85745
-2.24242,-2.2535,5.85699
-2.24548,-2.2504,5.85651
-2.25144,-2.24442,5.8555
-2.25443,-2.24138,5.85513
-2.25782,-2.23793,5.85469
-2.26036,-2.2353,5.85438
-2.26331,-2.23225,5.854
-2.26922,-2.22619,5.85312
-2.27214,-2.22312,5.85273
-2.27804,-2.21697,5.85183
-2.28087,-2.21394,5.85145
-2.28664,-2.20781,5.85055
-2.28948,-2.20469,5.85013
-2.29231,-2.20157,5.84971
-2.29798,-2.19535,5.84873
-2.30076,-2.19218,5.84825
-2.30354,-2.18901,5.84777
-2.30915,-2.18281,5.84693
-2.31192,-2.17967,5.8466
-2.31468,-2.17653,5.84625
-2.31742,-2.17338,5.84591
-2.32016,-2.17022,5.84558
-2.32288,-2.16706,5.84524
-2.32565,-2.16383,5.84489
-2.331,-2.15757,5.84406
-2.33636,-2.15123,5.84322
-2.34167,-2.14486,5.84237
-2.3443,-2.14165,5.84203
-2.34691,-2.13842,5.84169
-2.35211,-2.132,5.84083
-2.35469,-2.12876,5.84048
-2.35982,-2.12231,5.83962
-2.36235,-2.11903,5.83923
-2.3674,-2.11252,5.83833
-2.36989,-2.10922,5.8379
-2.37242,-2.10584,5.83746
-2.37736,-2.09928,5.83652
-2.37974,-2.09602,5.83609
-2.38216,-2.09269,5.83565
-2.38457,-2.08936,5.83521
-2.38697,-2.08603,5.83477
-2.38936,-2.0827,5.83432
-2.39176,-2.07923,5.83375
-2.39405,-2.07592,5.83325
-2.39638,-2.07253,5.83274
-2.39872,-2.06918,5.83231
-2.40104,-2.06581,5.83188
-2.40335,-2.06245,5.83145
-2.40564,-2.05908,5.83101
-2.40794,-2.05571,5.83058
-2.41022,-2.05234,5.83013
-2.41248,-2.04897,5.8297
-2.417,-2.04229,5.82877
-2.41923,-2.03891,5.82833
-2.42367,-2.03221,5.82738
-2.42586,-2.02882,5.82693
-2.42808,-2.02535,5.82647
-2.43239,-2.01872,5.82559
-2.43454,-2.01533,5.82519
-2.43671,-2.012,5.82493
-2.4389,-2.00859,5.82467
-2.441,-2.00531,5.82442
-2.44522,-1.99861,5.82365
-2.44732,-1.99525,5.82338
-2.4494,-1.99187,5.82311
-2.45351,-1.98513,5.82233
-2.4576,-1.97831,5.82155
-2.45957,-1.97499,5.82129
-2.46157,-1.97159,5.82102
-2.46355,-1.96818,5.82075
-2.46552,-1.96478,5.82048
-2.46748,-1.96137,5.82021
-2.46942,-1.95794,5.81993
-2.47135,-1.95453,5.81969
-2.47326,-1.9511,5.81944
-2.47703,-1.94424,5.81868
-2.47894,-1.94073,5.81841
-2.48076,-1.93736,5.81816
-2.48439,-1.9304,5.81727
-2.48617,-1.92688,5.8169
-2.48794,-1.92336,5.81651
-2.49145,-1.9164,5.81565
-2.49319,-1.91288,5.81528
-2.49492,-1.90936,5.81493
-2.49832,-1.9024,5.81407
-2.50001,-1.89889,5.81374
-2.50169,-1.89538,5.81341
-2.50336,-1.89187,5.81308
-2.50502,-1.88836,5.81275
-2.50828,-1.88138,5.81192
-2.51148,-1.8744,5.81108
-2.51306,-1.87088,5.81074
-2.51463,-1.86736,5.8104
-2.51771,-1.86036,5.80956
-2.51926,-1.85676,5.8092
-2.52073,-1.85329,5.80887
-2.52517,-1.84282,5.80752
-2.52662,-1.83929,5.80718
-2.52806,-1.83575,5.80684
-2.52951,-1.83215,5.80649
-2.53224,-1.82515,5.80553
-2.53359,-1.82156,5.80509
-2.53491,-1.81797,5.80465
-2.53757,-1.81092,5.80372
-2.54016,-1.80387,5.80278
-2.54147,-1.80016,5.80232
-2.54266,-1.79671,5.80189
-2.54389,-1.79314,5.80146
-2.5451,-1.78954,5.80099
-2.54632,-1.78599,5.80065
-2.54752,-1.78245,5.80031
-2.54874,-1.77883,5.79995
-2.54991,-1.77528,5.7996
-2.55221,-1.76834,5.79875
-2.5533,-1.76472,5.79828
-2.55437,-1.7611,5.7978
-2.55655,-1.75405,5.79681
-2.55759,-1.75044,5.79631
-2.5586,-1.74683,5.79582
-2.55961,-1.74323,5.79531
-2.56056,-1.73957,5.79469
-2.56151,-1.73591,5.79406
-2.56242,-1.73225,5.79339
-2.56333,-1.7286,5.79273
-2.56422,-1.72495,5.79206
-2.5651,-1.72131,5.79139
-2.56595,-1.71754,5.79057
-2.56677,-1.71395,5.78985
-2.5676,-1.71031,5.78911
-2.56936,-1.70331,5.78786
-2.57014,-1.69968,5.7871
-2.57091,-1.69606,5.78633
-2.57163,-1.6924,5.78548
-2.57238,-1.68871,5.78467
-2.57307,-1.68517,5.78388
-2.57377,-1.68156,5.78307
-2.57446,-1.6779,5.78224
-2.57511,-1.67438,5.78142
-2.57576,-1.67081,5.78058
-2.57643,-1.66728,5.77984
-2.5771,-1.66369,5.77908
-2.57773,-1.66025,5.77834
-2.57836,-1.65675,5.77759
-2.57902,-1.65332,5.77697
-2.58045,-1.64669,5.77585
-2.58106,-1.64327,5.77521
-2.58166,-1.63986,5.77457
-2.58224,-1.63644,5.77392
-2.58282,-1.63298,5.77325
-2.58336,-1.62965,5.7726
-2.58391,-1.62626,5.77192
-2.58444,-1.62289,5.77125
-2.58563,-1.6164,5.77007
-2.58613,-1.61306,5.76937
-2.58662,-1.60965,5.76866
-2.58708,-1.60639,5.76796
-2.58754,-1.60306,5.76725
-2.58799,-1.59976,5.76652
-2.58843,-1.59645,5.76579
-2.58885,-1.59316,5.76505
-2.58926,-1.58988,5.7643
-2.58966,-1.58661,5.76355
-2.59062,-1.58034,5.76228
-2.59099,-1.5771,5.76151
-2.5913,-1.57381,5.7606
-2.59161,-1.57053,5.75969
-2.59191,-1.56727,5.75877
-2.59273,-1.56108,5.75733
-2.59301,-1.55786,5.75638
-2.59331,-1.5547,5.75556
-2.59411,-1.54866,5.75423
-2.5944,-1.54548,5.75341
-2.59467,-1.54244,5.7526
-2.59541,-1.5365,5.75128
-2.59566,-1.53344,5.75045
-2.59635,-1.52757,5.74911
-2.59657,-1.52453,5.74826
-2.59679,-1.52151,5.74741
-2.59699,-1.5185,5.74653
-2.5976,-1.51268,5.74512
-2.59817,-1.50697,5.74371
-2.59832,-1.50407,5.74281
-2.59848,-1.50113,5.74188
-2.59901,-1.49554,5.74052
-2.59948,-1.48993,5.73904
-2.59957,-1.48702,5.73804
-2.59966,-1.48411,5.73704
-2.60008,-1.47858,5.73556
-2.60015,-1.47578,5.73459
