x,y,theta
0.981116,-1.60156,6.34643
0.982576,-1.60494,6.34528
0.986298,-1.6122,6.34432
0.989581,-1.61937,6.3428
0.991104,-1.62293,6.34218
0.992631,-1.62648,6.34156
0.994349,-1.63011,6.34141
0.996073,-1.63373,6.34127
0.997851,-1.63742,6.34118
0.99956,-1.64095,6.34112
1.00131,-1.64453,6.34105
1.00259,-1.64793,6.3403
1.00388,-1.65132,6.33956
1.0064,-1.65843,6.3376
1.0072,-1.66166,6.33614
1.00765,-1.66476,6.33414
1.01005,-1.67205,6.33234
1.01082,-1.67541,6.33102
1.01166,-1.6787,6.33006
1.01255,-1.68207,6.32909
1.01343,-1.68543,6.32811
1.01575,-1.69288,6.3264
1.01826,-1.70053,6.32528
1.02034,-1.70807,6.32357
1.02115,-1.71149,6.32291
1.02197,-1.71491,6.32224
1.0242,-1.72265,6.32104
1.025,-1.72606,6.32034
1.02581,-1.72946,6.31962
1.02751,-1.73708,6.31766
1.02938,-1.74488,6.31626
1.02995,-1.74826,6.31534
1.03076,-1.75176,6.315
1.03398,-1.76425,6.31352
1.03496,-1.76787,6.31368
1.03595,-1.77149,6.31382
1.03693,-1.77508,6.31396
1.03905,-1.78323,6.31357
1.04139,-1.79156,6.31389
1.04221,-1.79519,6.31399
1.04301,-1.79863,6.31411
1.04385,-1.80224,6.3142
1.04465,-1.80564,6.31429
1.04645,-1.81372,6.31385
1.04727,-1.81719,6.31389
1.04781,-1.82052,6.31346
1.04838,-1.82394,6.31302
1.04892,-1.82716,6.31257
1.05059,-1.83528,6.31223
1.05106,-1.83858,6.31186
1.05184,-1.84214,6.3122
1.05248,-1.84545,6.31237
1.05316,-1.84885,6.31252
1.05416,-1.8568,6.31139
1.05509,-1.8646,6.31024
1.05599,-1.87253,6.30903
1.05708,-1.88063,6.30838
1.05812,-1.88876,6.30769
1.05883,-1.89229,6.3082
1.05954,-1.8958,6.30869
1.06078,-1.90407,6.30865
1.06149,-1.90755,6.30909
1.06227,-1.91105,6.30971
1.06265,-1.91433,6.30965
1.06374,-1.92255,6.30976
1.06438,-1.92599,6.31036
1.06541,-1.93419,6.31042
1.06639,-1.94239,6.31043
1.06718,-1.9459,6.31132
1.06755,-1.94918,6.3115
1.06819,-1.95722,6.31113
1.06847,-1.96044,6.31111
1.06911,-1.96863,6.31092
1.06922,-1.97178,6.3107
1.0696,-1.975,6.31117
1.06959,-1.9781,6.31096
1.0696,-1.98119,6.31073
1.06961,-1.98427,6.31048
1.06965,-1.98736,6.31021
1.0697,-1.99043,6.30992
1.06981,-1.99832,6.30907
1.06988,-2.00623,6.30816
1.06994,-2.00933,6.30773
1.07001,-2.01242,6.30728
1.0701,-2.01552,6.30681
1.0698,-2.01841,6.30565
1.0695,-2.02625,6.3041
1.06892,-2.02901,6.30241
1.06836,-2.03179,6.30068
1.06766,-2.03959,6.29838
1.06722,-2.04249,6.29681
1.0668,-2.04542,6.2952
1.06659,-2.04852,6.29414
1.0664,-2.05163,6.29304
1.06613,-2.06,6.29179
1.06603,-2.0632,6.29087
1.06594,-2.06642,6.28994
1.06554,-2.07484,6.28843
1.0651,-2.08332,6.28686
1.06461,-2.09185,6.28522
1.06478,-2.09535,6.28479
1.06483,-2.09878,6.2841
1.0645,-2.1077,6.28311
1.06424,-2.11089,6.2819
1.06399,-2.1142,6.28065
1.0632,-2.1229,6.27884
1.06258,-2.13195,6.27761
1.0626,-2.13539,6.27688
1.06284,-2.13914,6.27678
1.0631,-2.1429,6.27667
1.06337,-2.14667,6.27653
1.06294,-2.15591,6.27584
1.06253,-2.16523,6.27534
1.06207,-2.17459,6.27479
1.06263,-2.1789,6.27544
1.0629,-2.18254,6.27548
1.06316,-2.18641,6.27547
1.0634,-2.1904,6.27544
1.06284,-2.19972,6.27513
1.06319,-2.20368,6.27529
1.06377,-2.20783,6.27613
1.06334,-2.21743,6.27642
1.06413,-2.22175,6.27782
1.06491,-2.22617,6.27921
1.06461,-2.23578,6.28008
1.06541,-2.24008,6.28144
1.06621,-2.24437,6.28278
1.0655,-2.25391,6.28306
1.06611,-2.25798,6.28408
1.06671,-2.26214,6.28507
1.06736,-2.26634,6.28621
1.06801,-2.27052,6.28734
1.06743,-2.28006,6.28824
1.06668,-2.28951,6.28893
1.06743,-2.29381,6.29046
1.06818,-2.2981,6.29198
1.06894,-2.30238,6.29349
1.06935,-2.3064,6.29436
1.06824,-2.31556,6.2947
1.06865,-2.31959,6.29553
1.06928,-2.32382,6.29701
1.06791,-2.33284,6.29727
1.06815,-2.33681,6.29802
1.0682,-2.34063,6.29839
1.06827,-2.34447,6.29875
1.06834,-2.34831,6.2991
1.06842,-2.35215,6.29945
1.06676,-2.36103,6.29927
1.067,-2.36505,6.30009
1.06722,-2.36916,6.3009
1.0659,-2.37827,6.30191
1.066,-2.38222,6.30274
1.06432,-2.39121,6.30339
1.0622,-2.39993,6.30332
1.06004,-2.40865,6.30323
1.05986,-2.41247,6.30364
1.0597,-2.4163,6.30404
1.05917,-2.41987,6.30373
1.05861,-2.42355,6.3034
1.05604,-2.43195,6.30255
1.05357,-2.44066,6.30231
1.05289,-2.44422,6.30186
1.05221,-2.4478,6.30141
1.05155,-2.4514,6.30095
1.0511,-2.45522,6.30114
1.05067,-2.45905,6.30132
1.05031,-2.46295,6.30169
1.04996,-2.46687,6.30207
1.04975,-2.47092,6.30286
1.04955,-2.47498,6.30366
1.04935,-2.47905,6.30446
1.04917,-2.48312,6.30527
1.04918,-2.48737,6.30672
1.04916,-2.49172,6.30818
1.04924,-2.49588,6.3097
1.04653,-2.50464,6.31018
1.04628,-2.50868,6.31116
1.04576,-2.5125,6.3116
1.0428,-2.52111,6.31194
1.04203,-2.52478,6.31206
1.04128,-2.52847,6.31218
1.04054,-2.53218,6.31231
1.0398,-2.53591,6.31244
1.0388,-2.53942,6.31202
1.03799,-2.54313,6.31217
1.03446,-2.55148,6.3118
1.03382,-2.5554,6.31248
1.03009,-2.56365,6.31204
1.02934,-2.56755,6.31279
1.0286,-2.57145,6.31355
1.02782,-2.57545,6.31431
1.02426,-2.58379,6.31457
1.02361,-2.5878,6.31563
1.02296,-2.59181,6.3167
1.02232,-2.59582,6.31778
1.02133,-2.59953,6.31815
1.01745,-2.60777,6.31838
1.01656,-2.61162,6.31913
1.01576,-2.61555,6.32016
1.01155,-2.62355,6.32002
1.01062,-2.62742,6.32109
1.00941,-2.63104,6.32159
1.00831,-2.63494,6.32267
1.00735,-2.63866,6.32379
1.00633,-2.64248,6.32491
1.00532,-2.6463,6.32605
1.00124,-2.65448,6.32729
1.0004,-2.65846,6.32905
0.999553,-2.66244,6.33084
0.995028,-2.67014,6.33141
0.99045,-2.67781,6.332
0.98923,-2.68147,6.33311
0.988018,-2.68513,6.33424
0.986811,-2.68879,6.33538
0.982334,-2.69656,6.33676
0.980981,-2.70011,6.33797
0.979753,-2.70379,6.33964
0.978206,-2.70717,6.34065
0.976665,-2.71056,6.34167
0.975011,-2.71384,6.34245
0.97329,-2.71718,6.34324
0.97172,-2.72038,6.34407
0.966451,-2.72731,6.34441
0.960911,-2.73399,6.34427
0.959178,-2.73723,6.34516
0.957316,-2.74034,6.34577
0.951832,-2.74711,6.34629
0.946308,-2.75386,6.34684
0.944552,-2.7571,6.34791
0.942469,-2.76002,6.34828
0.9404,-2.76295,6.34867
0.938342,-2.76588,6.34908
0.936297,-2.76882,6.34951
0.934054,-2.77157,6.34951
0.931982,-2.77451,6.3501
0.929921,-2.77745,6.35072
0.923943,-2.78372,6.35086
0.921656,-2.78645,6.351
0.919454,-2.78928,6.35143
0.91717,-2.79202,6.35169
0.915013,-2.79491,6.35239
0.908565,-2.80071,6.35198
0.906215,-2.80341,6.35237
0.903611,-2.806,6.35235
0.901184,-2.80847,6.35236
0.898608,-2.81108,6.35238
0.896208,-2.81358,6.35243
0.893657,-2.81621,6.35249
0.883029,-2.82491,6.35157
0.880244,-2.82717,6.35095
0.873426,-2.83267,6.35033
0.870747,-2.83508,6.35014
0.86827,-2.83774,6.35071
0.861488,-2.84347,6.35079
0.859238,-2.84625,6.35191
0.856592,-2.84875,6.35234
0.849668,-2.85416,6.35229
0.847016,-2.85664,6.35271
0.844292,-2.8592,6.35314
0.83737,-2.86444,6.35303
0.830334,-2.86971,6.35292
0.827402,-2.87189,6.35273
0.824661,-2.87432,6.35326
0.821681,-2.87647,6.35324
0.818625,-2.87869,6.35322
0.815466,-2.88049,6.35256
0.812412,-2.88259,6.35262
0.809342,-2.88468,6.35263
0.806198,-2.88683,6.35265
0.803249,-2.88887,6.35271
0.800398,-2.89122,6.35349
0.792747,-2.89582,6.35307
0.789763,-2.89803,6.3538
0.786411,-2.89996,6.35388
0.778714,-2.90433,6.35348
0.775475,-2.90622,6.35359
0.772428,-2.90835,6.35445
0.769355,-2.91044,6.35525
0.766331,-2.91258,6.35622
0.762931,-2.91441,6.3565
0.759593,-2.91648,6.35737
0.756455,-2.91799,6.35765
0.753228,-2.91988,6.35865
0.745364,-2.92404,6.35918
0.742157,-2.92591,6.36022
0.738787,-2.92757,6.36087
0.735543,-2.92937,6.36201
0.732094,-2.93091,6.36264
0.723946,-2.93451,6.36278
0.720371,-2.93584,6.36307
0.716817,-2.93718,6.36341
0.708533,-2.94051,6.36326
0.705005,-2.94184,6.36363
0.701217,-2.94282,6.36333
0.697451,-2.94381,6.36305
0.693706,-2.94481,6.36279
0.689982,-2.9458,6.36255
0.686278,-2.9468,6.36233
0.682721,-2.948,6.36268
0.678939,-2.94889,6.36244
0.670451,-2.95172,6.36202
0.666688,-2.95277,6.36211
0.663136,-2.95375,6.36224
0.659408,-2.95479,6.36238
0.651208,-2.95771,6.36269
0.647475,-2.95857,6.36282
0.643762,-2.95944,6.36296
0.639829,-2.96,6.36251
0.63592,-2.96057,6.36207
0.631756,-2.9608,6.36094
0.622664,-2.96269,6.35927
0.613569,-2.96423,6.35703
0.609175,-2.96426,6.35528
0.605009,-2.96426,6.35355
0.600775,-2.96433,6.3518
0.596517,-2.96436,6.34992
0.59229,-2.96442,6.34804
0.587809,-2.96416,6.34543
0.578509,-2.96563,6.34227
0.573881,-2.96516,6.33905
0.569398,-2.96492,6.33632
0.560007,-2.96654,6.33302
0.555688,-2.96633,6.33024
0.551304,-2.9662,6.32744
0.54211,-2.968,6.32409
0.537746,-2.96789,6.32112
0.53354,-2.96805,6.31873
0.524409,-2.97006,6.3155
0.520149,-2.97015,6.31277
0.515829,-2.97016,6.30978
0.506779,-2.97241,6.30668
0.502607,-2.97266,6.30407
0.498459,-2.97294,6.30145
0.494339,-2.97328,6.29883
0.490372,-2.97388,6.29679
0.481303,-2.97632,6.29351
0.477122,-2.97662,6.29071
0.47274,-2.97664,6.28728
0.468387,-2.97673,6.28384
0.463918,-2.97666,6.27998
0.454511,-2.97909,6.27554
0.445318,-2.98152,6.27105
0.436142,-2.98427,6.26697
0.426974,-2.98711,6.26283
0.417957,-2.99029,6.25934
0.413888,-2.99096,6.25634
0.4099,-2.99178,6.25361
0.400718,-2.99492,6.24961
0.396616,-2.99564,6.24661
0.392282,-2.99626,6.24315
0.388204,-2.99687,6.23986
0.384029,-2.99758,6.2365
0.375004,-3.00144,6.23325
0.370989,-3.00249,6.23048
0.367012,-3.00386,6.22831
0.363003,-3.00477,6.22542
0.358941,-3.00608,6.22316
0.355097,-3.00732,6.2209
0.351213,-3.00875,6.21886
0.34716,-3.01014,6.21655
0.343225,-3.0115,6.21424
0.334308,-3.01595,6.21138
0.330523,-3.01764,6.2097
0.326651,-3.01942,6.20799
0.317931,-3.02441,6.20621
0.314258,-3.02634,6.20491
0.31066,-3.02841,6.20394
0.307072,-3.0305,6.20297
0.303596,-3.03281,6.20255
0.2948,-3.03832,6.2016
0.291415,-3.04081,6.20163
0.288144,-3.04323,6.20166
0.279495,-3.04878,6.20118
0.276118,-3.05125,6.2012
0.272859,-3.05394,6.20184
0.269419,-3.05655,6.20222
0.2662,-3.05903,6.20264
0.262718,-3.06129,6.20256
0.259246,-3.06357,6.20247
0.250086,-3.06846,6.20121
0.246603,-3.07051,6.20092
0.243022,-3.07262,6.20063
0.239407,-3.07493,6.20069
0.235872,-3.07687,6.20032
0.226793,-3.08173,6.19943
0.217688,-3.08655,6.19851
0.214157,-3.08877,6.19868
0.205123,-3.09374,6.19833
0.201595,-3.09593,6.19849
0.192529,-3.10081,6.19815
0.183429,-3.10565,6.1978
0.1799,-3.1078,6.19795
0.176382,-3.10996,6.19812
0.167036,-3.11432,6.19707
0.16331,-3.11609,6.19652
0.159488,-3.11767,6.19562
0.155682,-3.11928,6.19473
0.15189,-3.1209,6.19383
0.142431,-3.12509,6.19242
0.132949,-3.12927,6.19098
0.129169,-3.13092,6.19004
0.125318,-3.13244,6.18883
0.121478,-3.13399,6.18761
0.117528,-3.13532,6.18598
0.113593,-3.13668,6.18434
0.109514,-3.13777,6.18215
0.0996537,-3.14179,6.1801
0.0958134,-3.14316,6.17856
0.0919792,-3.1449,6.17775
0.0879694,-3.14657,6.17669
0.0842753,-3.14834,6.1761
0.0745084,-3.15251,6.17458
0.0705931,-3.15413,6.17355
0.066688,-3.15578,6.17252
0.0569834,-3.16021,6.17156
0.0530349,-3.16181,6.1706
0.0490956,-3.16342,6.16964
0.0451676,-3.16506,6.16867
0.0353896,-3.16949,6.16783
0.0312711,-3.1711,6.16684
0.0214181,-3.17512,6.16535
0.0114218,-3.17918,6.16383
0.00743812,-3.1808,6.16283
0.00346253,-3.18245,6.16184
-0.000420593,-3.18434,6.16144
-0.00447212,-3.18587,6.16038
-0.00851222,-3.18742,6.15931
-0.0125396,-3.18898,6.15825
-0.0226517,-3.19301,6.15666
-0.0266677,-3.19461,6.15557
-0.0368081,-3.19865,6.15395
-0.0408195,-3.20029,6.15283
-0.0508942,-3.20463,6.15192
-0.0548045,-3.20656,6.1515
-0.0587519,-3.2088,6.1517
-0.062653,-3.2108,6.15158
-0.0663792,-3.21289,6.15179
-0.0702249,-3.21503,6.15201
-0.0740657,-3.21716,6.15223
-0.0841993,-3.22145,6.15178
-0.0880649,-3.22354,6.15197
-0.091923,-3.22565,6.15217
-0.0959987,-3.22793,6.1526
-0.0995663,-3.23004,6.15308
-0.103305,-3.23247,6.15416
-0.107039,-3.2349,6.15527
-0.11077,-3.2373,6.1564
-0.1148,-3.23932,6.15682
-0.118483,-3.24154,6.158
-0.12229,-3.24379,6.15918
-0.126091,-3.24602,6.16038
-0.129956,-3.24808,6.16133
-0.140206,-3.25193,6.16179
-0.144135,-3.25382,6.16252
-0.154476,-3.25741,6.16276
-0.15857,-3.25888,6.16282
-0.162654,-3.26036,6.1629
-0.166858,-3.26153,6.16245
-0.171154,-3.26285,6.16223
-0.181643,-3.26569,6.16153
-0.185733,-3.26722,6.16191
-0.196301,-3.27025,6.16181
-0.200387,-3.27178,6.16223
-0.204702,-3.27305,6.16217
-0.215259,-3.27568,6.16164
-0.2261,-3.27791,6.16045
-0.230476,-3.27906,6.16038
-0.234718,-3.2798,6.1597
-0.245627,-3.28188,6.15851
-0.249982,-3.28267,6.15782
-0.254325,-3.28349,6.15714
-0.265295,-3.2854,6.15564
-0.269611,-3.28634,6.15539
-0.280658,-3.28809,6.15391
-0.285238,-3.28868,6.15293
-0.296423,-3.29006,6.15077
-0.300857,-3.29026,6.14911
-0.305505,-3.29025,6.14698
-0.310141,-3.29029,6.14484
-0.314897,-3.2904,6.14268
-0.319376,-3.29051,6.14053
-0.32411,-3.29071,6.13836
-0.335192,-3.29233,6.13601
-0.339741,-3.29272,6.13415
-0.344231,-3.29336,6.13281
-0.355402,-3.29531,6.13095
-0.35982,-3.29627,6.13028
-0.364231,-3.29726,6.12962
-0.368635,-3.29826,6.12896
-0.373032,-3.29929,6.12831
-0.377425,-3.30034,6.12767
-0.381947,-3.30098,6.12633
-0.399929,-3.30424,6.12428
-0.404421,-3.30506,6.12323
-0.408889,-3.30597,6.12237
-0.413377,-3.30683,6.12137
-0.417966,-3.30786,6.12069
-0.422276,-3.30887,6.12003
-0.426689,-3.31007,6.11973
-0.431234,-3.31132,6.11943
-0.442269,-3.31395,6.1194
-0.446619,-3.31547,6.11989
-0.450968,-3.31701,6.12039
-0.455316,-3.31855,6.12092
-0.459643,-3.32017,6.12168
-0.47083,-3.32272,6.12196
-0.475159,-3.32432,6.12278
-0.47954,-3.32572,6.12329
-0.483915,-3.32713,6.12383
-0.488427,-3.32855,6.12439
-0.492644,-3.33003,6.1252
-0.497254,-3.3311,6.1253
-0.501538,-3.33238,6.12602
-0.506062,-3.33329,6.12612
-0.51058,-3.33421,6.12624
-0.515232,-3.33516,6.12637
-0.526527,-3.33666,6.12605
-0.531039,-3.33761,6.12623
-0.535686,-3.33858,6.12644
-0.540052,-3.33955,6.12668
-0.544504,-3.34079,6.12762
-0.549064,-3.34159,6.12787
-0.553619,-3.3424,6.12814
-0.558205,-3.34307,6.1282
-0.562764,-3.34385,6.12855
-0.567362,-3.34446,6.12864
-0.571957,-3.34509,6.12874
-0.583534,-3.34585,6.12821
-0.588104,-3.34664,6.12884
-0.592774,-3.347,6.12879
-0.597428,-3.3474,6.12882
-0.602225,-3.34777,6.12879
-0.613693,-3.34838,6.12868
-0.618319,-3.34891,6.12908
-0.623082,-3.34945,6.1295
-0.641528,-3.34991,6.12898
-0.646115,-3.35067,6.13006
-0.650789,-3.35101,6.13049
-0.655459,-3.35137,6.13095
-0.660213,-3.35131,6.13075
-0.664922,-3.35154,6.13123
-0.669717,-3.35133,6.13102
-0.674643,-3.35114,6.13083
-0.679277,-3.35098,6.13067
-0.684041,-3.35084,6.13053
-0.688798,-3.35071,6.13041
-0.693548,-3.35061,6.13031
-0.7123,-3.34951,6.12891
-0.717045,-3.34945,6.12909
-0.721784,-3.34941,6.1293
-0.72649,-3.34961,6.13012
-0.731188,-3.34981,6.13098
-0.735878,-3.35001,6.13187
-0.747742,-3.34923,6.13178
-0.759317,-3.34841,6.13174
-0.771023,-3.34751,6.13173
-0.775718,-3.34766,6.13299
-0.780472,-3.34744,6.13369
-0.792186,-3.34631,6.13392
-0.796929,-3.34608,6.13469
-0.801666,-3.34586,6.1355
-0.806458,-3.34525,6.13572
-0.811241,-3.34466,6.13597
-0.816079,-3.3437,6.13564
-0.82089,-3.34297,6.13583
-0.825693,-3.34225,6.13605
-0.830602,-3.34181,6.13701
-0.84216,-3.34012,6.13743
-0.847061,-3.33961,6.13837
-0.85187,-3.33876,6.13878
-0.856519,-3.33808,6.13957
-0.861342,-3.33707,6.13987
-0.873044,-3.33461,6.13971
-0.877896,-3.33319,6.13944
-0.882715,-3.33208,6.13993
-0.88755,-3.33081,6.14015
-0.892507,-3.32951,6.1404
-0.904034,-3.32665,6.14014
-0.908824,-3.32544,6.14062
-0.914558,-3.32401,6.14106
-0.918368,-3.32306,6.14167
-0.923179,-3.32145,6.14155
-0.934786,-3.31808,6.14096
-0.939563,-3.3165,6.14089
-0.95125,-3.31305,6.14034
-0.955862,-3.31154,6.14034
-0.967361,-3.30807,6.13986
-0.972077,-3.30653,6.1399
-0.976783,-3.305,6.13997
-0.988231,-3.30127,6.13925
-0.992931,-3.29958,6.13907
-0.997621,-3.29791,6.13892
-1.009,-3.29424,6.1385
-1.0137,-3.29228,6.138
-1.01838,-3.29036,6.13752
-1.02306,-3.28845,6.13707
-1.02771,-3.28683,6.1373
-1.0324,-3.28477,6.13685
-1.03721,-3.2827,6.13641
-1.04837,-3.27849,6.13552
-1.05963,-3.2742,6.13465
-1.07085,-3.26989,6.1338
-1.07545,-3.26816,6.13411
-1.08004,-3.26643,6.13443
-1.09117,-3.26229,6.13431
-1.09573,-3.26058,6.13472
-1.10682,-3.25636,6.13467
-1.11137,-3.25443,6.13481
-1.12241,-3.24993,6.13449
-1.12694,-3.248,6.13468
-1.13159,-3.24604,6.1349
-1.14258,-3.24101,6.13397
-1.14696,-3.23874,6.13358
-1.15146,-3.23645,6.13321
-1.15595,-3.23447,6.13361
-1.16043,-3.2325,6.13406
-1.1649,-3.23055,6.13454
-1.16949,-3.22846,6.13491
-1.17381,-3.22665,6.13572
-1.17828,-3.22439,6.13593
-1.18274,-3.22227,6.13651
-1.1872,-3.21974,6.13647
-1.19165,-3.21723,6.13647
-1.19611,-3.21432,6.13582
-1.20055,-3.21145,6.13521
-1.205,-3.20819,6.13394
-1.20945,-3.20521,6.13329
-1.22013,-3.19921,6.13217
-1.22453,-3.19628,6.13157
-1.23513,-3.18988,6.12983
-1.2395,-3.1866,6.12861
-1.24399,-3.18287,6.12672
-1.25438,-3.17639,6.12474
-1.25872,-3.17255,6.12258
-1.26305,-3.16888,6.12068
-1.2675,-3.16474,6.11806
-1.27168,-3.16081,6.11546
-1.28205,-3.15351,6.11175
-1.2863,-3.14929,6.10853
-1.29054,-3.14483,6.10478
-1.30082,-3.13787,6.10124
-1.31117,-3.1305,6.09695
-1.31524,-3.12647,6.09388
-1.31941,-3.12247,6.09079
-1.32357,-3.11854,6.0877
-1.32771,-3.11469,6.0846
-1.33184,-3.11091,6.08151
-1.33594,-3.10721,6.0784
-1.34005,-3.10377,6.07578
-1.34415,-3.10011,6.07269
-1.35417,-3.094,6.06907
-1.35835,-3.09045,6.06593
-1.36227,-3.08706,6.06281
-1.37222,-3.08117,6.05898
-1.37625,-3.07802,6.05623
-1.38027,-3.07464,6.053
-1.39019,-3.06922,6.04974
-1.39419,-3.06618,6.04697
-1.39821,-3.06349,6.04487
-1.4081,-3.05859,6.04227
-1.41211,-3.05618,6.04064
-1.41612,-3.05382,6.03902
-1.42012,-3.05152,6.03742
-1.42411,-3.04926,6.03583
-1.43396,-3.04484,6.03374
-1.44378,-3.04044,6.03165
-1.44774,-3.0383,6.03008
-1.45169,-3.0358,6.02787
-1.46145,-3.03115,6.02515
-1.46548,-3.02871,6.02292
-1.46932,-3.0267,6.02145
-1.4849,-3.02037,6.01897
-1.48886,-3.01867,6.01823
-1.49283,-3.01701,6.01751
-1.49694,-3.01563,6.01755
-1.5066,-3.01203,6.017
-1.51061,-3.01082,6.01748
-1.5146,-3.00962,6.018
-1.52438,-3.00631,6.01861
-1.53411,-3.00258,6.01872
-1.53833,-3.00114,6.01935
-1.54208,-2.99989,6.02005
-1.54609,-2.99878,6.02136
-1.55009,-2.99763,6.02267
-1.5541,-2.99654,6.02416
-1.55811,-2.99544,6.02569
-1.56222,-2.99427,6.02725
-1.56618,-2.99269,6.02815
-1.57563,-2.98838,6.02861
-1.57956,-2.98666,6.0294
-1.58349,-2.98494,6.03023
-1.59298,-2.98033,6.03061
-1.59689,-2.97861,6.03153
-1.60076,-2.97644,6.03177
-1.60462,-2.97428,6.03204
-1.60846,-2.97202,6.03214
-1.6123,-2.96978,6.03228
-1.61612,-2.96732,6.03207
-1.61996,-2.96512,6.03247
-1.6238,-2.96292,6.03291
-1.62763,-2.96074,6.03338
-1.63156,-2.95841,6.03372
-1.63529,-2.95638,6.03447
-1.63914,-2.95429,6.03524
-1.64836,-2.94891,6.03557
-1.65218,-2.94681,6.03644
-1.65598,-2.94471,6.03735
-1.65977,-2.94245,6.03804
-1.66368,-2.94027,6.03914
-1.66737,-2.93823,6.04031
-1.67115,-2.93612,6.04151
-1.67503,-2.93393,6.04274
-1.6787,-2.93187,6.04404
-1.68242,-2.92931,6.04468
-1.68614,-2.9268,6.04548
-1.68995,-2.92422,6.0463
-1.6936,-2.92207,6.04791
-1.6973,-2.91944,6.04893
-1.70101,-2.9169,6.05018
-1.7098,-2.91008,6.05037
-1.71343,-2.90714,6.05109
-1.71699,-2.90375,6.05114
-1.72054,-2.90038,6.05121
-1.72414,-2.89656,6.05068
-1.72752,-2.89294,6.05019
-1.73099,-2.88927,6.04972
-1.7345,-2.88589,6.04996
-1.74293,-2.87811,6.04913
-1.74636,-2.8744,6.04882
-1.74987,-2.87063,6.04853
-1.75317,-2.86705,6.04828
-1.75651,-2.863,6.04738
-1.75984,-2.85899,6.04651
-1.76315,-2.85502,6.04565
-1.76646,-2.85108,6.04481
-1.76974,-2.84719,6.044
-1.77303,-2.84334,6.04322
-1.78109,-2.83543,6.04195
-1.78434,-2.83165,6.04121
-1.78756,-2.82781,6.04035
-1.79078,-2.82402,6.03951
-1.79393,-2.81985,6.03801
-1.80177,-2.81162,6.03603
-1.80489,-2.80756,6.03457
-1.80802,-2.80365,6.03339
-1.8158,-2.7957,6.03173
-1.81905,-2.79201,6.03111
-1.82212,-2.78852,6.03054
-1.82991,-2.78112,6.03011
-1.83302,-2.7774,6.02951
-1.84066,-2.76957,6.02844
-1.84367,-2.76549,6.02722
-1.84667,-2.76146,6.02603
-1.84961,-2.75718,6.02439
-1.85709,-2.74876,6.02225
-1.86442,-2.74049,6.02014
-1.86722,-2.73646,6.01855
-1.8701,-2.7324,6.01697
-1.87738,-2.72446,6.01527
-1.8846,-2.71648,6.01347
-1.88745,-2.71263,6.01218
-1.8903,-2.70882,6.01093
-1.89757,-2.70109,6.00962
-1.90035,-2.69762,6.00886
-1.90326,-2.69424,6.00847
-1.90616,-2.69089,6.00811
-1.91334,-2.68339,6.00729
-1.91614,-2.68017,6.00702
-1.91903,-2.67699,6.00698
-1.92193,-2.67384,6.00698
-1.92895,-2.66655,6.00654
-1.93183,-2.66343,6.00663
-1.93479,-2.66031,6.00692
-1.94157,-2.65277,6.00615
-1.94443,-2.64965,6.00663
-1.94728,-2.64654,6.00715
-1.95015,-2.6435,6.00785
-1.95308,-2.64038,6.00858
