x,y,theta
0.371088,-1.73328,6.16082
0.372255,-1.73746,6.16032
0.37459,-1.74602,6.1593
0.376513,-1.75435,6.15772
0.377419,-1.75849,6.15703
0.378312,-1.76263,6.15633
0.379363,-1.76691,6.15613
0.380404,-1.77119,6.15592
0.381448,-1.77553,6.15569
0.38244,-1.77968,6.15547
0.38344,-1.78391,6.15523
0.384427,-1.78811,6.15497
0.385399,-1.7923,6.1547
0.387233,-1.80097,6.15391
0.388156,-1.80514,6.15361
0.389065,-1.80931,6.15329
0.390748,-1.818,6.15245
0.391624,-1.82225,6.15209
0.392569,-1.82643,6.15209
0.393515,-1.83069,6.15206
0.394448,-1.83493,6.15202
0.395906,-1.84364,6.15125
0.397508,-1.85259,6.15114
0.399031,-1.86154,6.15101
0.399949,-1.86586,6.15137
0.400854,-1.87016,6.15171
0.402224,-1.87906,6.15154
0.403078,-1.88333,6.15184
0.403922,-1.88757,6.15213
0.405149,-1.89644,6.1519
0.406295,-1.90531,6.15165
0.407062,-1.90954,6.15187
0.408037,-1.91397,6.15277
0.409471,-1.92762,6.15254
0.41032,-1.93198,6.15329
0.411158,-1.93633,6.15404
0.411984,-1.94065,6.15477
0.412934,-1.94957,6.15497
0.414015,-1.95872,6.15585
0.41467,-1.96306,6.15665
0.415318,-1.9672,6.15746
0.415956,-1.97149,6.15823
0.416587,-1.97559,6.15901
0.417174,-1.9843,6.15926
0.417759,-1.98844,6.15999
0.418339,-1.99256,6.16071
0.418909,-1.99675,6.1614
0.41947,-2.00074,6.1621
0.420078,-2.00954,6.16295
0.420506,-2.01354,6.16373
0.420923,-2.01761,6.16449
0.421252,-2.0214,6.16507
0.421571,-2.02527,6.16563
0.421619,-2.03368,6.16565
0.421612,-2.04191,6.16566
0.42153,-2.05021,6.16563
0.421378,-2.05851,6.16558
0.421158,-2.0668,6.16549
0.421338,-2.07065,6.16588
0.421509,-2.07449,6.16626
0.421165,-2.08274,6.16611
0.421296,-2.08655,6.16644
0.42142,-2.09035,6.16676
0.42125,-2.09386,6.16649
0.420672,-2.10204,6.16637
0.420668,-2.10578,6.16674
0.419997,-2.11395,6.16657
0.41926,-2.12211,6.16637
0.419319,-2.12599,6.16707
0.419087,-2.12959,6.16719
0.418072,-2.1376,6.16677
0.417735,-2.14112,6.1667
0.416656,-2.14928,6.1665
0.416404,-2.15295,6.16679
0.416165,-2.15652,6.16707
0.41591,-2.16017,6.16733
0.415643,-2.16382,6.16757
0.415371,-2.16745,6.16779
0.415097,-2.17109,6.16799
0.414819,-2.17471,6.16818
0.413533,-2.1827,6.16783
0.41218,-2.19069,6.16745
0.411846,-2.19432,6.16756
0.411507,-2.19794,6.16764
0.41116,-2.20156,6.16771
0.410812,-2.20517,6.16776
0.409352,-2.21321,6.16745
0.409025,-2.21688,6.16763
0.408694,-2.22056,6.16779
0.407125,-2.22858,6.16742
0.406837,-2.23235,6.16779
0.406544,-2.23613,6.16816
0.406243,-2.23989,6.16851
0.405937,-2.24366,6.16884
0.404281,-2.25174,6.16865
0.403946,-2.25551,6.16895
0.403603,-2.25928,6.16923
0.401828,-2.26734,6.16899
0.399983,-2.2754,6.16872
0.39807,-2.28346,6.16843
0.397638,-2.28725,6.16863
0.397201,-2.29104,6.16881
0.395142,-2.29919,6.16846
0.394702,-2.30291,6.16862
0.394219,-2.30672,6.16876
0.392073,-2.31479,6.16838
0.389999,-2.32319,6.16865
0.389675,-2.32716,6.16943
0.389308,-2.33122,6.17019
0.388934,-2.33527,6.17095
0.388555,-2.33932,6.17171
0.386348,-2.34754,6.17195
0.384136,-2.35584,6.17244
0.381851,-2.36411,6.17293
0.38136,-2.3684,6.17389
0.380761,-2.37207,6.17433
0.380076,-2.37591,6.17474
0.379343,-2.37983,6.17513
0.37667,-2.38765,6.17503
0.375943,-2.39149,6.17542
0.375205,-2.39532,6.17581
0.372369,-2.40319,6.17568
0.371763,-2.40727,6.17673
0.371105,-2.41143,6.17776
0.368355,-2.41939,6.17832
0.367701,-2.42347,6.17937
0.36704,-2.42753,6.18042
0.364086,-2.43556,6.18097
0.363495,-2.43963,6.18227
0.362845,-2.44376,6.18358
0.362182,-2.44788,6.18489
0.361507,-2.45198,6.1862
0.35847,-2.45983,6.18703
0.355361,-2.46764,6.18787
0.354615,-2.47172,6.18922
0.353858,-2.4758,6.19058
0.353092,-2.47985,6.19195
0.352075,-2.4836,6.19276
0.34855,-2.49091,6.19308
0.347499,-2.49466,6.19391
0.346597,-2.49864,6.19541
0.34311,-2.50611,6.19644
0.342167,-2.51007,6.19798
0.341049,-2.51381,6.19912
0.339924,-2.51755,6.20028
0.338789,-2.52127,6.20145
0.337643,-2.52497,6.20263
0.3338,-2.53198,6.20332
0.332619,-2.53566,6.20453
0.331374,-2.5394,6.20574
0.327474,-2.54622,6.2065
0.326018,-2.54957,6.20719
0.321831,-2.55621,6.20775
0.317584,-2.56281,6.20832
0.313279,-2.56937,6.20893
0.311819,-2.57284,6.21004
0.310352,-2.57631,6.21117
0.308647,-2.57946,6.21174
0.306881,-2.58266,6.21232
0.302261,-2.5887,6.21242
0.297532,-2.59478,6.21253
0.295774,-2.59793,6.21315
0.294006,-2.60108,6.21379
0.292232,-2.60422,6.21444
0.29045,-2.60736,6.2151
0.288662,-2.61051,6.21577
0.286868,-2.61366,6.21646
0.285068,-2.61681,6.21716
0.283262,-2.61996,6.21788
0.281446,-2.62311,6.21862
0.279623,-2.62626,6.21937
0.277791,-2.6294,6.22014
0.275951,-2.63254,6.22093
0.274039,-2.63572,6.22173
0.272246,-2.63879,6.22256
0.267148,-2.64449,6.22292
0.26526,-2.6476,6.22379
0.263146,-2.6504,6.22411
0.257831,-2.65586,6.2244
0.255567,-2.65851,6.22464
0.253299,-2.66118,6.22489
0.251028,-2.66385,6.22515
0.24875,-2.66652,6.22543
0.246253,-2.66888,6.22515
0.243753,-2.67126,6.22488
0.237863,-2.67605,6.22411
0.235347,-2.67846,6.22386
0.229401,-2.68325,6.22312
0.227004,-2.68593,6.22356
0.224601,-2.68861,6.22401
0.222124,-2.69133,6.22447
0.21629,-2.69625,6.22448
0.213859,-2.69893,6.22499
0.211423,-2.7016,6.22553
0.208981,-2.70427,6.22608
0.206533,-2.70694,6.22665
0.200586,-2.71193,6.22714
0.198188,-2.71473,6.22815
0.195781,-2.71753,6.22919
0.189543,-2.72205,6.22919
0.186908,-2.72451,6.2297
0.184065,-2.72664,6.22966
0.181145,-2.72883,6.22962
0.17837,-2.73094,6.22961
0.175517,-2.7331,6.22961
0.172665,-2.73527,6.22963
0.166101,-2.73939,6.22917
0.16323,-2.74157,6.22923
0.160357,-2.74374,6.2293
0.15373,-2.7478,6.2289
0.147065,-2.75184,6.22852
0.14415,-2.75401,6.22866
0.141229,-2.75618,6.22883
0.138305,-2.75836,6.22901
0.131552,-2.76231,6.22872
0.128606,-2.76448,6.22895
0.125744,-2.76682,6.22968
0.122876,-2.76918,6.23045
0.119997,-2.77153,6.23124
0.117023,-2.77372,6.23179
0.113965,-2.77593,6.23235
0.111055,-2.77806,6.23296
0.104143,-2.78178,6.23309
0.0971933,-2.78546,6.23326
0.0941662,-2.78759,6.23396
0.0911325,-2.78971,6.23469
0.0841159,-2.79325,6.23496
0.0770668,-2.79673,6.23527
0.0739943,-2.79881,6.23611
0.0707302,-2.80056,6.2364
0.0674663,-2.8023,6.23672
0.0641987,-2.80403,6.23706
0.0609318,-2.80575,6.23742
0.0576626,-2.80747,6.23781
0.0545057,-2.80943,6.23889
0.0513442,-2.81137,6.24
0.0441004,-2.81443,6.24066
0.0407393,-2.81601,6.24127
0.037376,-2.81757,6.24191
0.0340069,-2.81913,6.24257
0.0306355,-2.82067,6.24327
0.0231445,-2.82314,6.24349
0.0197683,-2.82464,6.24425
0.0161707,-2.82589,6.24457
0.0127369,-2.8271,6.24493
0.00913894,-2.82832,6.2453
0.0057055,-2.82951,6.24571
0.00210609,-2.83071,6.24612
-0.00966706,-2.83338,6.2456
-0.0131986,-2.83453,6.24609
-0.020919,-2.83634,6.24612
-0.0244863,-2.8374,6.24658
-0.0280564,-2.83844,6.24706
-0.0359165,-2.84007,6.24706
-0.0394062,-2.84108,6.24762
-0.0431497,-2.84176,6.24761
-0.0511149,-2.84293,6.24713
-0.0548571,-2.84359,6.24717
-0.0586815,-2.84426,6.24722
-0.0665704,-2.84535,6.24682
-0.0745507,-2.84639,6.24643
-0.0784562,-2.84668,6.24599
-0.0823567,-2.84698,6.24557
-0.0864153,-2.84695,6.24459
-0.0905515,-2.84693,6.2436
-0.0946724,-2.84657,6.24207
-0.0988684,-2.84624,6.24053
-0.103057,-2.84593,6.239
-0.107321,-2.84565,6.23746
-0.111403,-2.84537,6.23595
-0.115462,-2.84538,6.2351
-0.123763,-2.84578,6.23375
-0.127808,-2.8458,6.23291
-0.132089,-2.84549,6.2315
-0.140438,-2.84556,6.22959
-0.144611,-2.84526,6.22818
-0.148777,-2.84498,6.22678
-0.152958,-2.84467,6.22528
-0.157108,-2.84444,6.22394
-0.161333,-2.84422,6.22259
-0.165633,-2.84402,6.22124
-0.169652,-2.84347,6.21936
-0.173822,-2.84322,6.21812
-0.182237,-2.84342,6.21637
-0.186388,-2.84319,6.21513
-0.19065,-2.8427,6.21342
-0.1949,-2.84223,6.21171
-0.199138,-2.84178,6.21
-0.20762,-2.84182,6.20777
-0.211934,-2.84116,6.20565
-0.216236,-2.84054,6.20353
-0.224788,-2.84045,6.20087
-0.229069,-2.83986,6.19871
-0.233336,-2.83929,6.19655
-0.237587,-2.83874,6.19437
-0.241827,-2.83822,6.19219
-0.246055,-2.83771,6.19
-0.250272,-2.83722,6.18781
-0.254395,-2.83702,6.18625
-0.258508,-2.83683,6.18469
-0.266846,-2.83747,6.18296
-0.270984,-2.83746,6.18172
-0.274942,-2.83741,6.18049
-0.279065,-2.83741,6.17925
-0.287217,-2.83833,6.17819
-0.291298,-2.83823,6.17704
-0.295371,-2.83814,6.1759
-0.299435,-2.83807,6.17475
-0.303489,-2.83799,6.1736
-0.307533,-2.83793,6.17245
-0.315965,-2.83856,6.17078
-0.324223,-2.83915,6.1691
-0.32833,-2.8391,6.16791
-0.332257,-2.83904,6.16673
-0.336262,-2.839,6.16555
-0.340292,-2.83888,6.16422
-0.344316,-2.83878,6.16288
-0.348463,-2.83835,6.16097
-0.356938,-2.83863,6.15853
-0.361198,-2.83789,6.156
-0.365446,-2.83717,6.15346
-0.374116,-2.83725,6.15036
-0.378252,-2.83656,6.14776
-0.382462,-2.83591,6.14514
-0.391026,-2.83613,6.14197
-0.395214,-2.83554,6.13928
-0.399322,-2.83524,6.13726
-0.407872,-2.8357,6.13438
-0.41203,-2.83527,6.13199
-0.41618,-2.83486,6.12958
-0.424678,-2.83564,6.1271
-0.428763,-2.83545,6.1251
-0.432845,-2.83528,6.12309
-0.436919,-2.83513,6.12107
-0.440987,-2.83501,6.11903
-0.449485,-2.83597,6.11645
-0.453539,-2.83587,6.11436
-0.457586,-2.8358,6.11225
-0.461629,-2.83575,6.11013
-0.465665,-2.83571,6.10799
-0.47426,-2.83687,6.1053
-0.482687,-2.83802,6.1026
-0.491165,-2.83943,6.10038
-0.499658,-2.84085,6.09813
-0.508161,-2.84227,6.09585
-0.512123,-2.84251,6.09405
-0.516078,-2.84276,6.09225
-0.524601,-2.84425,6.08991
-0.528553,-2.84452,6.08805
-0.532599,-2.84484,6.08617
-0.536441,-2.84519,6.08448
-0.540376,-2.84559,6.08277
-0.548933,-2.84728,6.08052
-0.552873,-2.8477,6.07876
-0.556844,-2.84843,6.07766
-0.560626,-2.84911,6.07657
-0.564535,-2.85012,6.07612
-0.568258,-2.85108,6.07569
-0.572055,-2.85216,6.07549
-0.575942,-2.85325,6.07529
-0.579733,-2.8543,6.07509
-0.588133,-2.85655,6.0744
-0.591931,-2.85757,6.07419
-0.59582,-2.8586,6.07398
-0.604211,-2.86095,6.07377
-0.607975,-2.86211,6.07405
-0.611735,-2.86326,6.07434
-0.615494,-2.86439,6.07463
-0.619252,-2.8655,6.07492
-0.627862,-2.86764,6.07471
-0.631619,-2.8687,6.07501
-0.635277,-2.86971,6.07532
-0.643807,-2.87167,6.07513
-0.647563,-2.87264,6.07544
-0.651315,-2.8736,6.07576
-0.65516,-2.87455,6.07607
-0.658809,-2.87545,6.0764
-0.662641,-2.87599,6.07617
-0.666468,-2.87653,6.07593
-0.675197,-2.87786,6.07517
-0.678925,-2.87837,6.07493
-0.682744,-2.87888,6.07469
-0.686656,-2.8794,6.07443
-0.69037,-2.87988,6.07419
-0.699007,-2.88106,6.07343
-0.707651,-2.8822,6.07267
-0.711451,-2.88264,6.0724
-0.720096,-2.8837,6.07162
-0.723885,-2.88409,6.07135
-0.732531,-2.88505,6.07057
-0.74119,-2.88597,6.06977
-0.744973,-2.8863,6.06948
-0.748749,-2.88663,6.06919
-0.757488,-2.88711,6.06781
-0.761335,-2.88708,6.06693
-0.765176,-2.88704,6.06604
-0.769008,-2.88702,6.06515
-0.77283,-2.88698,6.06425
-0.781553,-2.88744,6.06283
-0.790283,-2.88787,6.0614
-0.794092,-2.88782,6.06045
-0.797897,-2.88778,6.0595
-0.801699,-2.88775,6.05854
-0.805492,-2.88771,6.05758
-0.809276,-2.88767,6.05661
-0.813124,-2.88728,6.05506
-0.821988,-2.88767,6.05364
-0.8257,-2.88757,6.05274
-0.829507,-2.88748,6.05182
-0.833412,-2.88741,6.05089
-0.83711,-2.88732,6.04996
-0.845925,-2.88742,6.04806
-0.849762,-2.88709,6.04665
-0.853593,-2.88676,6.04523
-0.86241,-2.8869,6.04327
-0.866228,-2.88658,6.0418
-0.870037,-2.88627,6.04032
-0.873844,-2.88598,6.03882
-0.882644,-2.88647,6.03747
-0.886522,-2.88649,6.0366
-0.895226,-2.88696,6.03523
-0.90404,-2.88741,6.03383
-0.90781,-2.88742,6.03292
-0.911576,-2.88743,6.032
-0.915338,-2.88745,6.03108
-0.919094,-2.88747,6.03014
-0.922843,-2.88749,6.0292
-0.926583,-2.88751,6.02825
-0.935398,-2.88796,6.02678
-0.939129,-2.88798,6.0258
-0.947952,-2.8884,6.0243
-0.951678,-2.88842,6.02329
-0.960511,-2.88883,6.02176
-0.964228,-2.88885,6.02072
-0.968048,-2.88889,6.01966
-0.971764,-2.88893,6.01861
-0.975372,-2.88898,6.01756
-0.979079,-2.88904,6.01648
-0.982785,-2.88911,6.01541
-0.991657,-2.88946,6.01363
-0.995375,-2.88944,6.01234
-0.99909,-2.88943,6.01104
-1.00301,-2.88955,6.00994
-1.00651,-2.88965,6.00888
-1.01022,-2.88978,6.00779
-1.01392,-2.88992,6.00669
-1.01763,-2.89006,6.00558
-1.02144,-2.89022,6.00446
-1.02503,-2.89066,6.00402
-1.02872,-2.89111,6.00358
-1.03242,-2.89156,6.00313
-1.03611,-2.892,6.00268
-1.04505,-2.89281,6.00172
-1.04877,-2.89309,6.00099
-1.05774,-2.8937,5.99975
-1.06147,-2.89397,5.99901
-1.0652,-2.89426,5.99826
-1.06892,-2.89455,5.9975
-1.07275,-2.89496,5.99698
-1.08166,-2.89565,5.99597
-1.08539,-2.89605,5.99545
-1.09442,-2.89669,5.99442
-1.09816,-2.89708,5.99389
-1.10199,-2.89747,5.99335
-1.11094,-2.89807,5.99232
-1.12001,-2.89864,5.99128
-1.12385,-2.8993,5.99141
-1.12748,-2.89993,5.99156
-1.13656,-2.90068,5.9912
-1.1403,-2.90129,5.99136
-1.14403,-2.90188,5.99151
-1.15314,-2.90231,5.99086
-1.15688,-2.90266,5.9907
-1.16599,-2.90301,5.99005
-1.16985,-2.90335,5.98989
-1.17898,-2.90364,5.98925
-1.18263,-2.90398,5.98912
-1.1864,-2.90398,5.98845
-1.19018,-2.90399,5.98779
-1.19406,-2.90399,5.98711
-1.19773,-2.90401,5.98646
-1.20161,-2.90402,5.98578
-1.21068,-2.90406,5.98497
-1.21445,-2.90422,5.98465
-1.21824,-2.90462,5.98493
-1.22742,-2.90479,5.98473
-1.23121,-2.90515,5.98503
-1.23499,-2.90551,5.98535
-1.23878,-2.90585,5.98567
-1.24256,-2.90618,5.986
-1.24633,-2.90649,5.98634
-1.25011,-2.90678,5.98669
-1.26471,-2.90641,5.98639
-1.2685,-2.90681,5.98711
-1.27229,-2.90718,5.98784
-1.27608,-2.90753,5.98859
-1.27996,-2.90784,5.98934
-1.28363,-2.90817,5.99013
-1.28741,-2.90846,5.99092
-1.29129,-2.90873,5.99172
-1.30035,-2.90832,5.99207
-1.30412,-2.90855,5.99293
-1.3079,-2.90878,5.9938
-1.31168,-2.90899,5.99469
-1.31544,-2.90917,5.9956
-1.32458,-2.90843,5.99605
-1.32835,-2.90856,5.99701
-1.33211,-2.90844,5.99765
-1.33586,-2.90831,5.99831
-1.33972,-2.90815,5.99898
-1.34336,-2.9081,5.9999
-1.34722,-2.90798,6.00082
-1.35086,-2.90789,6.00178
-1.3546,-2.90739,6.00217
-1.35833,-2.90689,6.00259
-1.36217,-2.90635,6.003
-1.37111,-2.90458,6.00296
-1.37484,-2.90405,6.00343
-1.37867,-2.90347,6.0039
-1.38228,-2.90294,6.00441
-1.38601,-2.90263,6.0056
-1.38973,-2.90194,6.00624
-1.39345,-2.90123,6.0069
-1.39715,-2.90051,6.00757
-1.40085,-2.89976,6.00826
-1.40454,-2.8988,6.00866
-1.40822,-2.89783,6.00907
-1.41713,-2.89513,6.00884
-1.42081,-2.8943,6.00979
-1.42448,-2.89309,6.01019
-1.42814,-2.89187,6.01059
-1.43189,-2.89057,6.01093
-1.44064,-2.88771,6.01121
-1.44428,-2.88657,6.01199
-1.44802,-2.88538,6.01279
-1.46186,-2.88047,6.01263
-1.46547,-2.87926,6.01348
-1.46905,-2.87768,6.01377
-1.47264,-2.8761,6.01407
-1.47619,-2.87415,6.01381
-1.47974,-2.87222,6.01356
-1.48326,-2.86993,6.01274
-1.48687,-2.86761,6.01191
-1.49027,-2.86539,6.0111
-1.49375,-2.86315,6.01028
-1.49722,-2.86092,6.00946
-1.50069,-2.85872,6.00864
-1.51422,-2.85238,6.0068
-1.51765,-2.8502,6.00597
-1.52107,-2.84803,6.00513
-1.52448,-2.84588,6.0043
-1.52788,-2.84374,6.00347
-1.53127,-2.84162,6.00265
-1.53971,-2.837,6.00072
-1.54792,-2.83247,5.9988
-1.5562,-2.82791,5.99684
-1.55954,-2.82577,5.99606
-1.56287,-2.82364,5.99527
-1.57113,-2.81941,5.99398
-1.57444,-2.81731,5.99319
-1.57774,-2.81523,5.99241
-1.58102,-2.81315,5.99163
-1.5843,-2.81109,5.99085
-1.58757,-2.80904,5.99008
-1.59083,-2.80702,5.98932
-1.59409,-2.80502,5.98855
-1.59748,-2.80325,5.98846
-1.60555,-2.7994,5.98789
-1.60892,-2.79764,5.98781
-1.61215,-2.79556,5.98718
-1.61527,-2.79354,5.98656
-1.61848,-2.79148,5.98594
-1.62651,-2.7872,5.98482
-1.62965,-2.78479,5.98363
-1.63283,-2.78267,5.98311
-1.636,-2.78057,5.9826
-1.63925,-2.77842,5.98208
-1.64709,-2.77408,5.98102
-1.65023,-2.77205,5.98068
-1.65403,-2.76971,5.98028
-1.65649,-2.76802,5.98002
-1.65956,-2.76566,5.97913
-1.66737,-2.76102,5.97773
-1.67042,-2.75869,5.97682
-1.67827,-2.75403,5.9754
-1.6812,-2.75179,5.9745
-1.68891,-2.74719,5.97308
-1.6919,-2.74493,5.97217
-1.69488,-2.7427,5.97126
-1.70251,-2.73795,5.96951
-1.70545,-2.73555,5.96826
-1.70838,-2.73318,5.96701
-1.71596,-2.72852,5.96525
-1.71886,-2.7262,5.96398
-1.72176,-2.72391,5.96272
-1.72465,-2.72163,5.96146
-1.72759,-2.71965,5.96087
-1.73048,-2.71732,5.95972
-1.73345,-2.71498,5.95855
-1.74085,-2.71047,5.95689
-1.74832,-2.70593,5.95521
-1.75576,-2.7014,5.95352
-1.75859,-2.69919,5.95233
-1.76141,-2.69699,5.95114
-1.7688,-2.69255,5.94945
-1.77161,-2.69041,5.94825
-1.77898,-2.68602,5.94655
-1.78177,-2.68393,5.94535
-1.78911,-2.67959,5.94364
-1.79189,-2.67754,5.94241
-1.79475,-2.67546,5.94117
-1.80206,-2.67121,5.93944
-1.80473,-2.66927,5.93822
-1.80749,-2.66732,5.93699
-1.8103,-2.66566,5.93644
-1.81312,-2.66402,5.9359
-1.81593,-2.6624,5.93536
-1.81882,-2.66075,5.93483
-1.82154,-2.65921,5.93433
-1.82428,-2.65727,5.93325
-1.82704,-2.6555,5.93254
-1.82975,-2.65339,5.93125
-1.83245,-2.6513,5.92997
-1.83515,-2.64925,5.92869
-1.83786,-2.64724,5.92741
-1.84056,-2.64525,5.92613
-1.84327,-2.6433,5.92485
-1.85046,-2.63918,5.92306
-1.85315,-2.63727,5.92177
-1.86033,-2.63322,5.91998
-1.86302,-2.63138,5.91869
-1.8658,-2.62952,5.9174
-1.87292,-2.62578,5.91605
-1.87559,-2.62383,5.91462
-1.87829,-2.62201,5.91345
-1.88108,-2.62019,5.91227
-1.8837,-2.61848,5.91112
-1.89087,-2.61462,5.90945
-1.89358,-2.61293,5.90829
-1.89628,-2.61127,5.90713
-1.90346,-2.60751,5.90547
-1.91071,-2.60373,5.90381
-1.91334,-2.60219,5.90266
-1.91605,-2.60063,5.90152
-1.91877,-2.5991,5.90037
-1.92149,-2.5976,5.89924
-1.92421,-2.59613,5.89811
-1.92693,-2.59467,5.89698
-1.92972,-2.59346,5.8964
-1.93251,-2.59226,5.89583
-1.93976,-2.58898,5.89477
-1.94265,-2.58777,5.89422
-1.94536,-2.58667,5.8937
-1.95258,-2.5833,5.89251
-1.95537,-2.58208,5.89184
-1.95809,-2.58057,5.89066
-1.96525,-2.57695,5.88898
-1.96798,-2.5755,5.88781
-1.9708,-2.57433,5.88731
-1.97804,-2.57105,5.88634
-1.98086,-2.56991,5.88588
-1.98369,-2.56878,5.88543
-1.98652,-2.56768,5.885
-1.98936,-2.56659,5.88457
-1.99662,-2.56334,5.88368
-2.00386,-2.56007,5.8828
-2.00671,-2.55901,5.88245
-2.00956,-2.55797,5.88211
-2.0168,-2.5547,5.88129
-2.01975,-2.55363,5.88099
-2.02252,-2.55266,5.88072
-2.03412,-2.54711,5.87948
-2.03708,-2.54637,5.87994
-2.04005,-2.54563,5.88042
-2.04318,-2.54509,5.88159
-2.05047,-2.54224,5.88234
-2.05352,-2.5417,5.88361
-2.05656,-2.54114,5.88491
-2.06389,-2.53804,5.88578
-2.0711,-2.53451,5.88612
-2.07422,-2.53344,5.88698
-2.077,-2.53257,5.8879
-2.07996,-2.53158,5.88883
-2.08291,-2.53058,5.88979
-2.08586,-2.52958,5.89079
-2.08882,-2.52856,5.89181
-2.09186,-2.52748,5.89286
-2.09482,-2.52644,5.89394
-2.10183,-2.52257,5.8946
-2.10475,-2.52137,5.89558
-2.10767,-2.52017,5.8966
-2.11469,-2.51597,5.89717
-2.11761,-2.51475,5.89828
-2.12043,-2.51316,5.89885
-2.12326,-2.51157,5.89944
-2.12609,-2.50998,5.90007
-2.12892,-2.50839,5.90072
-2.13176,-2.50681,5.90141
-2.13459,-2.50522,5.90212
-2.13742,-2.50362,5.90287
-2.14026,-2.50202,5.90365
-2.14318,-2.50036,5.90446
-2.14596,-2.49884,5.90531
-2.14881,-2.49724,5.9062
-2.15557,-2.49226,5.90664
-2.15842,-2.49064,5.90762
-2.16127,-2.48901,5.90864
-2.16412,-2.48737,5.9097
-2.16705,-2.48566,5.91079
-2.16982,-2.48407,5.91194
-2.17266,-2.4824,5.91311
-2.17557,-2.48064,5.91432
-2.17834,-2.47902,5.91559
-2.18108,-2.47696,5.91632
-2.18382,-2.4749,5.91708
-2.18663,-2.47277,5.91787
-2.18929,-2.47077,5.91872
-2.19191,-2.46835,5.91901
-2.19457,-2.46601,5.91954
-2.20077,-2.45948,5.91903
-2.2033,-2.4568,5.91904
-2.20585,-2.45414,5.91909
-2.20839,-2.45148,5.91917
-2.211,-2.44876,5.91926
-2.21347,-2.44622,5.91941
-2.21602,-2.4436,5.91957
-2.21867,-2.44124,5.92044
-2.22471,-2.43454,5.92028
-2.22724,-2.43184,5.92066
-2.22983,-2.42905,5.92105
-2.23228,-2.42644,5.9215
-2.23469,-2.42341,5.92139
-2.23711,-2.4204,5.92131
-2.23952,-2.4174,5.92126
-2.24193,-2.41441,5.92124
-2.24434,-2.41144,5.92124
-2.24676,-2.40849,5.92128
-2.25252,-2.40141,5.92086
-2.25493,-2.39849,5.92097
-2.25734,-2.39558,5.92112
-2.25976,-2.39268,5.9213
-2.26206,-2.38945,5.92093
-2.26761,-2.38203,5.9201
-2.26991,-2.37885,5.9198
-2.27226,-2.37579,5.91979
-2.2778,-2.3685,5.91933
-2.28022,-2.36539,5.91939
-2.28251,-2.36247,5.91951
-2.288,-2.35518,5.91917
-2.29034,-2.35219,5.91936
-2.29577,-2.34488,5.91911
-2.29798,-2.34157,5.91882
-2.3002,-2.33827,5.91856
-2.30241,-2.33499,5.91832
-2.30769,-2.32728,5.91762
-2.31287,-2.31966,5.91698
-2.31501,-2.31652,5.91689
-2.31722,-2.31332,5.91681
-2.32233,-2.30571,5.91629
-2.32738,-2.29803,5.9157
-2.32954,-2.2948,5.91564
-2.33171,-2.29158,5.91562
-2.33674,-2.28382,5.91514
-2.33885,-2.28072,5.91521
-2.34108,-2.27769,5.91569
-2.34332,-2.27465,5.91621
-2.34831,-2.26699,5.91628
-2.35048,-2.26405,5.91692
-2.35271,-2.26103,5.91759
